///// OVI /////
TEMP        CS ELECTRON
N_i                   2
N_f                   3
5.00e+03           0.65
1.25e+04          0.752
2.50e+04          0.795
5.00e+04          0.755
1.25e+05          0.623
2.50e+05          0.496
5.00e+05          0.372
1.25e+06          0.229
2.50e+06          0.148
5.00e+06         0.0902
1.25e+07         0.0436
2.50e+07         0.0241
5.00e+07          0.013


N    Energy    g    Config       LSpi
2-> [81942.5, 1.0, '1s2.2s.2p', '3P*0'],
3-> [82078.6, 3.0, '1s2.2s.2p', '3P*1']